0.0	0.207855
0.199000120163	0.572538
0.480000019073	0.209096
0.723999977112	0.118907
0.963999986649	0.424165
1.15100026131	0.604141
1.34800004959	0.604141
1.48000001907	0.604141
1.63400030136	0.604141
3.46000003815	0.236944
5.45600008965	0.236944
7.44800019264	0.236944
9.45399999619	0.593605
11.617000103	0.306099
13.4510002136	1.173663
15.4500002861	1.629557
17.4539999962	0.13762
19.4609999657	0.035096
21.4500002861	2.295482
23.4470002651	0.009864
25.4580001831	0.401205
27.4580001831	0.646119
29.4580001831	1.864935
31.4520001411	0.008887
33.4649999142	0.011105
35.4500002861	1.162393
37.4609999657	0.010335
39.6849999428	0.027963
41.4459998608	0.118982
43.4539999962	0.225034
45.4580001831	0.264463
47.4580001831	0.316943
49.4600000381	0.316943
51.4040000439	0.275756
53.5280001163	0.007862
55.4480001926	0.400385
57.4480001926	0.509758
59.4539999962	0.509758
61.4560000896	0.574019
63.4520001411	0.574019
65.4590001106	0.021712
67.4630000591	0.611475
69.4619998932	0.611475
71.4480001926	0.646748
73.467000246	0.646748
75.4619998932	0.275525
77.4590001106	0.56256
79.4550001621	0.68399
81.4500002861	0.01138
83.4619998932	0.210403
85.4630000591	0.342802
87.4560000896	0.342802
89.4580001831	0.684426
91.4580001831	0.167239
93.4619998932	0.167239
95.4660003185	0.703655
97.4510002136	0.703655
99.4510002136	0.493427
101.450000286	0.493427
103.468000174	0.493427
105.455000162	0.730506
107.463999987	0.730506
109.453000069	0.720172
111.461999893	0.037778
113.463000059	0.69718
115.450000286	0.756545
117.460999966	0.756545
119.463999987	0.733644
121.453999996	0.733644
123.460000038	0.103728
125.45600009	0.136091
127.546000242	0.360231
129.452000141	0.493373
131.461999893	0.493373
133.461999893	0.753209
135.463000059	0.753209
137.463999987	0.756692
139.451000214	0.924989
141.453000069	0.924989
143.460999966	0.446493
145.708000183	0.05823
147.461999893	0.460031
149.714000225	0.460031
151.704999924	0.460031
153.704999924	0.537284
155.706000328	0.537284
157.717000008	0.558561
159.710000038	0.558561
161.565999985	0.011005
163.706000328	0.262212
165.713000059	0.262212
167.711000204	0.594545
169.717999935	0.594545
171.717999935	0.011477
173.706000328	0.144513
175.713000059	0.144728
177.707000256	0.640796
179.715000153	0.643389
181.714000225	0.694077
183.704999924	0.777058
185.703000069	0.83726
187.714000225	0.80712
189.706000328	0.89125
191.710000038	0.873447
193.713000059	0.748819
195.717000008	0.895813
197.712000132	0.895813
199.704999924	0.895813
201.736000061	0.895813
203.708000183	0.895813
205.71600008	0.294058
207.708000183	0.294058
209.71600008	0.012475
211.713000059	0.27732
213.703999996	0.27732
215.709000111	0.810731
217.706000328	0.810731
219.717000008	0.073491
221.713000059	0.245745
223.717999935	0.295848
225.711000204	0.787996
227.717000008	0.787996
229.708000183	0.795995
231.71600008	0.795995
233.648000002	0.757699
235.703999996	0.757699
237.71600008	0.757699
239.713000059	0.792074
241.717999935	0.792074
243.709000111	0.800326
245.719000101	0.800326
247.710000038	0.0109
249.717000008	0.837111
251.719000101	0.83466
253.710000038	0.845255
255.717000008	0.845255
257.674000263	0.59675
259.72300005	0.825438
261.706000328	0.009434
263.72300005	0.0448
265.710000038	0.159155
267.71600008	0.747694
269.710000038	0.747694
271.717999935	0.747694
273.723999977	0.761516
275.762000322	0.761516
277.74600029	0.74447
279.71600008	0.74447
281.782000065	0.279433
283.710000038	0.279433
285.717999935	0.279433
287.709000111	0.75997
