0.0	4.026066
0.223999977112	0.31123
0.542999982834	0.31123
0.661000013351	0.31123
0.800999879837	0.554005
0.976000070572	1.058402
1.15899991989	1.058402
1.35000014305	1.058402
1.85199999809	1.888819
3.84199976921	1.927623
5.84499979019	1.316995
7.84199976921	1.445864
9.84399986267	0.760152
11.8409998417	1.410438
13.875	1.410438
15.8389999866	1.410438
17.8399999142	1.679652
19.8419997692	2.038956
21.8489999771	1.945197
23.8529999256	1.949402
25.8399999142	3.087526
27.8419997692	2.787931
29.8409998417	3.975077
31.8419997692	3.188037
33.8399999142	3.188037
35.8409998417	3.188037
37.8449997902	0.00858
39.8470001221	0.471496
41.8399999142	0.519937
43.8399999142	1.027919
45.8419997692	1.027919
47.8449997902	1.027919
49.8729999065	1.461715
51.8429999352	1.532417
53.8409998417	1.532417
55.8419997692	1.532417
57.8429999352	1.532417
59.8399999142	1.532417
61.8409998417	1.532417
63.8419997692	1.532417
65.8470001221	1.532417
67.8389999866	1.532417
69.8429999352	1.532417
71.8419997692	1.612683
73.8429999352	1.329666
75.8409998417	1.205139
77.8480000496	0.128716
79.8399999142	1.154263
81.8419997692	1.485669
83.8449997902	1.621889
85.8419997692	1.266422
87.8439998627	1.500109
89.8429999352	1.500109
91.8399999142	1.350767
93.8599998951	2.04268
95.8399999142	2.232456
97.8409998417	1.836306
99.8429999352	0.57695
101.840999842	0.257983
103.841999769	1.689096
105.841999769	1.689096
107.838999987	1.689096
109.84800005	0.598671
111.840999842	0.598671
113.838999987	0.598671
115.848999977	0.908044
117.841999769	0.908044
119.846000195	0.908044
121.843999863	0.908044
123.840999842	0.908044
125.838999987	0.908044
127.843999863	0.908044
129.839999914	0.908044
131.840999842	0.908044
133.839999914	0.03649
135.840999842	0.297895
137.843999863	0.299856
139.841999769	0.215445
141.841999769	0.354715
143.841999769	0.401125
145.847000122	0.416757
147.839999914	0.420289
149.860999823	0.420289
151.841999769	0.420289
153.842999935	0.468642
155.842999935	0.010273
157.842999935	0.48026
159.843999863	0.48026
161.84800005	0.630783
163.839999914	0.141092
165.859999895	0.568036
167.84800005	0.025681
169.843999863	0.340566
171.843999863	0.012722
173.839999914	0.021795
175.843999863	0.893125
178.110000134	1.225767
179.841999769	1.280575
181.840999842	1.520067
183.841999769	1.738349
185.841999769	1.287516
187.841999769	1.508686
190.105000019	0.123688
191.843999863	0.009399
194.088999987	0.899544
196.09100008	0.595488
198.088999987	0.595488
200.099999905	0.595488
202.092000008	0.008516
204.095999956	0.600809
206.092999935	1.197424
208.097999811	0.11821
210.019000053	0.480361
212.089999914	0.480361
214.089999914	0.480361
216.094000101	0.503728
218.098999977	0.503728
220.096999884	0.010289
222.089999914	0.263631
224.089999914	0.323296
226.089999914	0.390264
228.09100008	0.345486
230.092000008	0.489502
232.098999977	0.457964
234.095000029	0.516051
236.088999987	0.48143
238.088999987	0.42667
240.089999914	0.508297
242.089999914	0.508297
244.088999987	0.535684
246.10800004	0.535684
248.089999914	0.452928
250.089999914	0.381533
252.092999935	0.424647
254.088999987	0.607477
256.089999914	0.607477
258.081999779	0.529922
260.099999905	0.529922
262.089999914	0.020686
264.089999914	0.581272
266.089999914	0.581272
268.092000008	0.03826
270.094000101	0.276447
272.089999914	0.05247
274.099999905	0.482844
276.101999998	0.482844
278.089999914	0.332658
280.089999914	0.116875
282.092999935	0.327491
284.10800004	0.327491
286.088999987	0.327491
288.099999905	0.019334
290.092000008	0.3024
292.09100008	0.18418
294.100999832	0.122501
296.09100008	0.293433
298.092000008	0.331849
300.089999914	0.309937
302.101999998	0.461212
304.089999914	0.433686
306.10800004	0.449668
308.119999886	0.445627
310.09100008	0.139193
312.097999811	0.489141
314.095000029	0.495407
316.099999905	0.524342
318.094000101	0.524342
320.089999914	0.211231
322.09100008	0.524424
324.089999914	0.247309
326.089999914	0.536086
328.092999935	0.019094
330.099999905	0.527861
332.092999935	0.189091
334.09100008	0.285685
336.092999935	0.323215
338.095000029	0.323215
340.01699996	0.002896
342.089999914	0.291476
344.104000092	0.291476
346.092999935	0.504932
348.089999914	0.504932
350.098999977	0.593142
352.09100008	0.593142
354.049000025	0.642193
356.089999914	0.642193
358.102999926	0.704312
360.088999987	0.651008
362.09100008	0.651008
364.088999987	0.691631
366.101999998	0.691631
368.088999987	0.691631
370.111999989	0.535481
372.101999998	0.535481
374.092000008	0.535481
376.105999947	0.535481
378.089999914	0.539229
380.089999914	0.539229
382.092000008	0.539229
384.092000008	0.731574
386.102999926	0.731574
388.096999884	0.715654
390.09100008	0.952392
392.111000061	0.921112
394.09100008	1.270585
396.09100008	1.559022
398.089999914	1.85076
400.111000061	1.603296
402.092999935	0.853717
404.092999935	2.679226
406.092999935	3.003965
408.09100008	3.272408
410.092000008	2.860059
412.09100008	0.63351
414.107000113	3.097823
416.098999977	3.559892
418.094000101	3.777464
420.09100008	0.019744
422.089999914	0.556272
424.094000101	4.232323
426.096999884	1.117002
428.339999914	4.7623
430.092000008	4.7623
432.092999935	4.7623
434.339999914	4.20447
436.34499979	3.822534
438.09100008	1.001807
440.253000021	1.001807
442.339999914	1.088233
444.34800005	1.088233
446.339999914	4.865889
448.092000008	1.708997
450.36500001	1.708997
452.342000008	1.708997
454.340999842	1.708997
456.338999987	1.708997
458.356999874	1.708997
460.338999987	4.732432
462.338999987	0.016943
464.236000061	1.975067
466.342000008	0.017906
468.34499979	4.492031
470.339999914	4.369712
472.342000008	4.362444
474.342999935	4.362444
476.342999935	4.362444
478.339999914	1.144731
480.340999842	0.637337
482.368000031	0.017653
484.340999842	1.368624
486.342000008	2.782327
488.236999989	2.782327
490.342999935	0.0261
492.350000143	3.335136
494.339999914	3.335136
496.339999914	3.335136
498.339999914	0.596248
500.340999842	1.170329
502.342000008	1.170329
504.342000008	0.114445
506.339999914	0.025408
508.338999987	1.567757
510.360999823	0.002796
512.555999994	0.308492
514.340999842	2.476451
516.340999842	2.476451
518.339999914	0.66026
520.355000019	2.026228
522.340999842	0.698143
524.342000008	0.049692
526.34800005	0.033378
528.340999842	0.013474
530.339999914	1.693099
532.363000154	0.002618
534.340999842	0.030778
536.235000134	1.759242
538.340999842	2.858318
540.339999914	2.858318
542.339999914	2.646074
544.355999947	0.039071
546.34499979	1.621314
548.342000008	0.0178
550.350000143	0.309145
552.363000154	0.199353
554.342000008	0.150308
556.339999914	0.009959
558.350000143	0.009277
560.236999989	0.591548
562.342000008	1.18048
564.340999842	0.036108
566.340999842	0.021962
568.34800005	0.06997
570.220999956	0.025733
572.339999914	0.026615
574.339999914	1.416911
576.342000008	1.643137
578.34800005	1.643137
580.355999947	1.643137
582.350000143	0.048545
584.342000008	2.082351
586.342000008	2.017027
588.340999842	2.223097
590.345999956	0.018856
592.339999914	0.481112
594.340999842	1.093243
596.342000008	2.082611
598.342000008	2.88734
600.345999956	2.165932
602.339999914	2.704546
604.340999842	2.905651
606.339999914	3.825616
608.339999914	3.637255
610.339999914	2.834512
612.353999853	4.050133
614.339999914	4.050133
616.351999998	3.2361
618.686000109	2.873995
620.340999842	0.063251
622.342999935	1.276869
624.339999914	3.417224
626.340999842	1.736509
628.340999842	1.736509
630.342000008	0.829733
632.343999863	5.107725
634.339999914	5.107725
636.342999935	5.107725
638.340999842	5.107725
640.342999935	5.186234
642.338999987	5.186234
644.338999987	5.186234
646.340999842	5.186234
648.338999987	0.011902
650.338999987	4.743823
652.338999987	4.933824
654.339999914	0.017951
656.338999987	1.216203
658.337999821	4.030717
660.342000008	4.030717
662.336999893	5.564973
664.342999935	4.693969
666.342999935	4.693969
668.34800005	4.693969
670.342999935	4.693969
672.343999863	4.693969
674.340999842	5.432303
676.353999853	5.432303
678.342000008	4.201039
680.343999863	2.368939
682.342000008	5.415806
684.590000153	1.310251
686.590000153	0.011202
688.588999987	5.078075
690.592000008	0.008198
692.595000029	4.859806
694.590000153	4.282746
696.640999794	1.705873
698.614000082	4.099362
700.595999956	0.663785
702.592000008	1.096227
704.590000153	0.46929
706.59100008	0.888464
708.590000153	1.416498
710.592000008	0.786052
712.592000008	4.515734
714.59800005	0.549247
716.592999935	4.074984
718.59800005	4.26929
720.592999935	4.499845
722.59100008	1.883422
724.595999956	0.248842
726.592000008	4.782171
728.593999863	4.782171
730.592999935	4.782171
732.592000008	0.28271
734.595000029	2.046121
736.595000029	2.046121
738.606000185	2.918207
740.593999863	3.445631
742.593999863	0.997258
744.616999865	0.061639
746.592000008	0.024442
748.592999935	0.07602
750.595000029	0.01073
752.588999987	0.010009
754.602999926	0.102769
756.595000029	0.092704
758.592999935	0.06496
760.592999935	0.027477
762.59100008	1.20183
764.595000029	3.152674
766.604000092	2.873385
768.605000019	3.244148
770.588999987	3.244148
772.588999987	2.620307
774.588000059	2.516109
776.588999987	3.902268
778.588999987	1.055397
780.59100008	3.883228
782.588000059	0.002414
784.588999987	4.26085
786.588000059	0.009316
788.625	0.277904
790.590000153	0.173515
792.593999863	0.027991
794.59100008	0.013017
796.592999935	0.022391
798.596999884	0.132119
800.592999935	1.063615
802.592000008	0.0541
804.59100008	1.493308
806.592999935	0.011954
808.59100008	3.593409
810.598999977	1.083561
812.611999989	4.079731
814.590000153	0.03384
816.587000132	4.681994
818.588999987	0.002443
820.588000059	1.93535
822.592000008	3.730771
824.604000092	0.569477
826.588999987	1.798745
828.606000185	0.089042
830.595999956	1.324214
832.590000153	0.131714
834.59100008	0.018131
836.592999935	3.228299
838.592999935	1.265503
840.59100008	0.00959
842.606000185	4.199872
844.59100008	0.673035
846.593999863	0.009578
848.592999935	0.008919
850.595000029	0.037906
852.592000008	0.513898
854.59100008	0.225382
856.59100008	3.552407
858.592000008	0.070978
860.59100008	3.283839
862.59100008	0.015951
864.595000029	0.050706
866.592000008	0.545182
868.59100008	0.740794
870.590000153	0.682334
872.59100008	0.018565
874.592000008	0.010296
876.59100008	0.089692
878.592000008	0.05358
880.59100008	1.138374
882.590000153	0.585256
884.59100008	0.205541
886.592999935	3.463626
888.592000008	1.173108
890.593999863	0.067631
892.592999935	1.086529
894.59800005	0.126948
896.593999863	0.065035
898.592000008	0.129781
900.592000008	2.512992
902.592000008	0.003083
904.59100008	0.108272
906.590000153	0.048492
908.592999935	0.051758
910.599999905	0.095024
912.595000029	0.021277
914.595000029	0.019956
916.593999863	0.778132
918.590000153	0.100627
920.592000008	0.009995
922.59100008	1.669118
924.592999935	0.068893
926.592000008	0.02521
928.592999935	1.549726
930.592000008	0.010154
932.595000029	0.533153
934.740999937	2.516178
936.840999842	3.19879
938.86500001	3.642215
940.849999905	2.797265
942.840999842	0.42941
944.840999842	3.151322
946.841999769	1.275392
948.842999935	1.656324
950.84800005	3.908291
952.865999937	0.903565
954.846000195	3.490228
956.840999842	2.999366
958.742000103	3.601025
960.840999842	2.780424
962.851000071	4.058146
964.841999769	1.540795
966.86500001	0.9362
968.84499979	0.01787
970.842999935	2.540905
972.842999935	4.185847
974.843999863	2.669891
976.841999769	1.739604
978.842999935	0.619543
980.863000154	4.150664
982.728999853	0.60829
984.839999914	0.017268
986.839999914	5.777305
988.839999914	5.106434
990.84499979	5.106434
992.841999769	4.974797
994.875999928	4.974797
996.846000195	0.182094
998.842999935	4.886971
1000.84099984	2.009579
1002.8499999	0.588403
1004.84099984	1.132404
1006.73199987	0.580748
1008.84099984	0.890114
1010.84499979	2.14324
1012.84299994	0.012754
1014.84099984	0.032689
1016.84299994	1.770362
1018.84099984	4.590468
1020.84099984	0.009567
1022.87000012	0.042408
1024.84899998	1.442789
1026.84199977	0.601653
1028.84299994	2.212424
1030.74000001	5.666707
1032.84199977	1.349857
1034.84099984	2.660707
1036.87299991	5.434405
1038.83800006	0.052432
1040.84099984	3.290484
1042.84600019	0.009468
1044.85400009	0.403985
1046.84099984	0.115137
1048.84099984	5.183118
1050.83800006	2.358255
1052.84099984	3.741001
1054.73400021	4.763914
1056.85599995	5.293443
1058.84199977	5.248015
1060.84299994	5.248015
1062.84600019	5.194271
1064.84099984	5.194271
1066.83999991	3.808339
1068.84099984	0.922917
1070.84199977	1.879465
1072.84099984	5.484457
1074.84099984	1.743467
1076.84199977	2.6176
1078.74699998	2.6176
1080.8599999	0.011759
1082.84099984	0.00882
1084.85299993	2.706687
1086.84099984	1.669132
1088.84099984	2.543387
1090.84299994	0.009555
1092.84399986	2.580217
1094.84399986	0.013059
1096.85899997	1.624655
1098.84099984	0.042572
1100.84499979	0.00996
1102.83800006	0.594417
1104.84199977	2.823372
1106.84499979	3.582981
1108.84299994	3.582981
1110.84099984	3.225625
1112.84800005	1.59854
1114.84299994	0.559972
1116.84199977	2.300283
1118.84099984	4.112937
1120.8670001	4.148124
1122.85599995	4.148124
1124.87100005	4.356052
1126.84499979	2.868519
1128.84299994	3.666151
1130.84199977	4.477
1132.84199977	0.111016
1134.84299994	0.133077
1136.83999991	0.044988
1138.84099984	3.665034
1140.84299994	0.017903
1142.84199977	0.580519
1144.84399986	1.065335
1146.84099984	0.062234
1148.84399986	0.022375
1150.84199977	0.608378
1152.84099984	0.065398
1154.84199977	0.602523
1156.84199977	2.246395
1158.84299994	2.246395
1160.84299994	2.607667
1162.83899999	0.062439
1164.85100007	4.651958
1166.83999991	3.838152
1168.84199977	3.838152
1170.86899996	0.583495
1172.84099984	0.021263
1174.84299994	2.25637
1176.89899993	0.008965
1178.84600019	0.110471
1180.84299994	0.528115
1182.8499999	1.710061
1184.8499999	0.015571
1187.09200001	2.044682
1188.84199977	3.372174
1191.09599996	0.179183
1193.09100008	0.008869
1195.14099979	0.009163
1197.09500003	0.010633
1199.09100008	3.254471
1201.08999991	1.702086
1203.09100008	3.474365
1205.09200001	0.768281
1207.09100008	2.559251
1209.09299994	2.165247
1211.0940001	1.095333
1212.9849999	1.774537
1215.08999991	0.021155
1217.09200001	3.067617
1219.09100008	1.041216
1221.09899998	0.078329
1223.10299993	0.57596
1225.09200001	0.009125
1227.11299992	0.010516
1229.09100008	0.018351
1231.09100008	0.125953
1233.09200001	0.854
1235.0940001	0.201973
1236.98000002	0.545965
1239.09100008	2.592693
1241.0940001	3.822255
1243.0940001	3.822255
1245.10099983	4.352076
1247.08899999	4.417358
1249.0940001	4.380419
1251.08999991	4.380419
1253.09500003	0.013158
1255.09299994	1.058352
1257.0999999	0.706335
1259.09200001	3.186017
1260.98899984	2.202628
1263.09100008	0.111732
1265.09100008	1.782425
1267.102	3.434067
1269.08899999	3.531056
1271.0860002	4.252338
1273.08800006	0.315219
1275.09100008	0.009705
1277.09299994	0.043929
1279.09200001	4.992662
1281.08800006	3.242577
1284.33799982	4.108208
1285.33799982	0.655888
1287.09699988	3.454812
1290.08899999	4.456178
1291.08999991	1.358621
1293.09799981	4.077804
1295.09299994	2.897246
1297.08899999	0.67233
1299.09100008	5.791443
1301.09100008	3.920392
1303.09200001	5.762033
1305.09100008	0.637263
1307.09100008	1.120057
1308.99800014	3.22199
1311.09200001	3.959913
1313.09100008	3.959913
1315.09500003	3.959913
1317.09799981	3.959913
1319.08899999	3.102125
1321.08999991	3.102125
1323.11699986	5.505185
1325.10400009	5.505185
1327.09299994	5.378165
1329.09200001	5.294181
1331.08999991	5.284364
1333.10500002	5.284364
1335.0940001	5.284364
1337.11500001	3.505507
1339.09100008	3.505507
1341.09200001	3.505507
1343.0940001	3.505507
1345.08999991	3.505507
1347.09299994	4.729518
1349.11699986	0.011069
1351.09100008	2.50512
1353.09200001	2.50512
1355.09200001	3.834801
1357.0940001	4.672704
1359.0940001	4.672704
1361.10800004	4.672704
1363.09100008	1.299365
1365.09100008	4.890185
1367.09200001	0.581261
1369.09599996	1.405088
1371.09200001	1.223597
1373.08999991	0.01662
1375.09100008	0.009659
1377.09200001	0.650875
1379.09299994	2.239623
1381.09200001	4.337979
1383.09899998	1.247689
1385.09299994	0.029073
1387.09200001	0.076481
1389.09200001	0.166978
1391.09299994	0.008581
1393.09100008	0.354242
1395.09200001	0.061084
1397.09799981	1.771526
1399.09200001	0.090495
1401.09299994	0.002128
1403.10099983	0.436465
1405.09100008	0.573083
1407.09500003	0.120155
1409.11999989	0.154264
1411.62700009	0.013801
1414.56900001	0.002889
1417.69900012	0.009114
1420.03100014	0.059207
1421.37400007	0.002961
1422.21700001	0.220356
1423.09799981	0.05778
1425.09299994	0.010584
1427.09100008	2.239593
1429.08999991	2.205735
1431.34200001	0.047985
1433.10700011	1.090812
1435.08999991	0.655998
1437.09299994	0.063783
1439.09200001	0.050697
1441.33999991	2.504818
1443.34499979	0.042536
1445.33699989	0.861143
1448.59000015	0.090851
1450.58800006	1.762325
1456.83999991	2.51419
1457.59800005	1.02658
1458.21700001	0.170643
1458.67199993	0.136929
1460.83800006	0.011842
1462.59000015	4.82962
1463.33799982	4.82962
1465.33799982	5.024108
1467.33799982	4.710917
1469.33899999	5.049953
1471.34099984	2.236004
1474.59000015	0.655671
1475.42499995	0.950531
1477.33799982	0.00802
1480.83999991	0.372914
1481.22799993	0.078043
1484.33699989	0.473874
1490.34700012	0.034377
1490.85699987	0.028472
1491.70000005	1.104183
1492.83899999	0.036782
1493.20799994	0.262258
1495.33799982	0.467312
1497.33799982	2.684126
1501.83999991	0.96691
1505.33899999	4.581326
1505.64499998	4.581326
1511.85899997	0.138501
1513.58599973	0.026882
1514.20799994	0.200378
1518.08899999	0.089867
1518.39299989	0.090362
1527.08800006	0.012546
1527.21299982	0.395638
1527.55100012	0.006591
1529.59000015	0.538307
1534.59000015	0.051719
1537.33999991	0.089085
1538.31100011	0.141871
1538.69499993	0.156718
1539.4849999	0.350762
1539.81699991	0.384199
1540.32299995	0.392516
1542.046	0.019476
1543.20700002	0.892463
